* Exported with UsyTrace, available at https://usyless.uk/trace
* Freq(Hz)	SPL(dB)
20.000000	116.152998
20.290907	116.218871
20.586045	116.350494
20.885476	116.446620
21.189262	116.496076
21.497467	116.524017
21.810155	116.478576
22.127391	116.427021
22.449241	116.391833
22.775773	116.448769
23.107054	116.521971
23.443154	116.623167
23.784142	116.699054
24.130091	116.774942
24.481071	116.850830
24.837156	116.933747
25.198421	117.027876
25.564940	117.093930
25.936791	117.145762
26.314050	117.173951
26.696797	117.202550
27.085111	117.222884
27.479073	117.235169
27.878765	117.247634
28.284271	117.260279
28.695675	117.273109
29.113064	117.286125
29.536523	117.285709
29.966142	117.271822
30.402009	117.257732
30.844217	117.243438
31.292856	117.228935
31.748021	117.213335
32.209807	117.192987
32.678309	117.172344
33.153626	117.151400
33.635857	117.130696
34.125101	117.110252
34.621462	117.089510
35.125043	117.068466
35.635949	117.046312
36.154286	117.023661
36.680162	117.000681
37.213687	116.977901
37.754973	116.955360
38.304131	116.932491
38.861278	116.909453
39.426528	116.887022
40.000000	116.864264
40.581813	116.841176
41.172089	116.810684
41.770951	116.778095
42.378524	116.724871
42.994934	116.671551
43.620309	116.643242
44.254781	116.614522
44.898482	116.586272
45.551545	116.557828
46.214108	116.525284
46.886308	116.468396
47.568285	116.420719
48.260181	116.373530
48.962142	116.316645
49.674312	116.268926
50.396842	116.223230
51.129881	116.177834
51.873582	116.127042
52.628101	116.071436
53.393594	116.026042
54.170222	115.980490
54.958146	115.934878
55.757531	115.880465
56.568542	115.828696
57.391351	115.783087
58.226127	115.737679
59.073046	115.691977
59.932283	115.646590
60.804018	115.601033
61.688433	115.555428
62.585712	115.501118
63.496042	115.444186
64.419613	115.388389
65.356618	115.343006
66.307252	115.297446
67.271713	115.251846
68.250203	115.197614
69.242925	115.145653
70.250086	115.100055
71.271897	115.054639
72.308571	115.008930
73.360323	114.963554
74.427374	114.913084
75.509945	114.856057
76.608262	114.799201
77.722555	114.751054
78.853056	114.705342
80.000000	114.659970
81.163627	114.609578
82.344179	114.553548
83.541903	114.508178
84.757048	114.462610
85.989867	114.417022
87.240619	114.363010
88.509563	114.310816
89.796964	114.265231
91.103091	114.211258
92.428216	114.130795
93.772615	114.045237
95.136569	113.997710
96.520362	113.959634
97.924283	113.925861
99.348625	113.893304
100.793684	113.850812
102.259762	113.793778
103.747164	113.736943
105.256202	113.680092
106.787188	113.623149
108.340444	113.566114
109.916292	113.509283
111.515061	113.452431
113.137085	113.395486
114.782702	113.338450
116.452255	113.281622
118.146092	113.224769
119.864566	113.167823
121.608036	113.110786
123.376866	113.053962
125.171424	112.997107
126.992084	112.940160
128.839227	112.883121
130.713236	112.826302
132.614504	112.769445
134.543426	112.712497
136.500406	112.655457
138.485850	112.598641
140.500173	112.541784
142.543795	112.484834
144.617142	112.427793
146.720647	112.370981
148.854748	112.314122
151.019890	112.257171
153.216525	112.200128
155.445111	112.143320
157.706112	112.086460
160.000000	112.029508
162.327254	111.972464
164.688358	111.915660
167.083805	111.858798
169.514095	111.801845
171.979734	111.744800
174.481237	111.687999
177.019125	111.631137
179.593928	111.574182
182.206182	111.517135
184.856431	111.460339
187.545230	111.403475
190.273138	111.346519
193.040725	111.289682
195.848567	111.244358
198.697250	111.188109
201.587368	111.112222
204.519524	111.036334
207.494329	110.975507
210.512403	110.943136
213.574377	110.910347
216.680888	110.882228
219.832584	110.853699
223.030122	110.821892
226.274170	110.784037
229.565404	110.746004
232.904509	110.708151
236.292183	110.670116
239.729132	110.632264
243.216073	110.591691
246.753732	110.546159
250.342848	110.505769
253.984168	110.467737
257.678453	110.429881
261.426473	110.391850
265.229008	110.353994
269.086853	110.315964
273.000811	110.278106
276.971700	110.240077
281.000346	110.202218
285.087590	110.164191
289.234284	110.121350
293.441294	110.075608
297.709496	110.019002
302.039780	109.949744
306.433050	109.893634
310.890221	109.847895
315.412224	109.891364
320.000000	109.912969
324.654507	109.880614
329.376716	109.847789
334.167610	109.822661
339.028190	109.797377
343.959469	109.771725
348.962474	109.746773
354.038251	109.721490
359.187855	109.695839
364.412363	109.670885
369.712863	109.645603
375.090460	109.619954
380.546277	109.582712
386.081450	109.544514
391.697134	109.488441
397.394500	109.431560
403.174736	109.396514
409.039048	109.415155
414.988657	109.434067
421.024807	109.453254
427.148753	109.464616
433.361775	109.455949
439.665167	109.447156
446.060244	109.438235
452.548340	109.429185
459.130807	109.420002
465.809019	109.410686
472.584367	109.401235
479.458265	109.391646
486.432146	109.383602
493.507464	109.375540
500.685695	109.367361
507.968337	109.359063
515.356906	109.350644
522.852945	109.342103
530.458016	109.333438
538.173706	109.324646
546.001623	109.315727
553.943399	109.301371
562.000691	109.286429
570.175180	109.271269
578.468569	109.255890
586.882588	109.240286
595.418991	109.197116
604.079560	109.174888
612.866100	109.220371
621.780442	109.250099
630.824447	109.268820
640.000000	109.287814
649.309014	109.307084
658.753431	109.320405
668.335221	109.329494
678.056380	109.338716
687.918938	109.348072
697.924949	109.357564
708.076501	109.367194
718.375711	109.376964
728.824726	109.386876
739.425726	109.396077
750.180921	109.404780
761.092554	109.413610
772.162900	109.422568
783.394268	109.431657
794.789000	109.440878
806.349472	109.450233
818.078095	109.459724
829.977315	109.469387
842.049613	109.479301
854.297507	109.489359
866.723550	109.499563
879.330334	109.509916
892.120489	109.520420
905.096680	109.531076
918.261614	109.541887
931.618037	109.524972
945.168733	109.504410
958.916529	109.483548
972.864291	109.483767
987.014928	109.559655
1001.371391	109.643853
1015.936673	109.736713
1030.713812	109.795837
1045.705890	109.841511
1060.916032	109.896973
1076.347412	109.953876
1092.003245	110.010871
1107.886798	110.067822
1124.001383	110.124634
1140.350359	110.166059
1156.937137	110.194395
1173.765175	110.223143
1190.837983	110.254914
1208.159120	110.287532
1225.732199	110.322950
1243.560885	110.360912
1261.648894	110.389599
1280.000000	110.410055
1298.618029	110.430809
1317.506863	110.451864
1336.670442	110.470777
1356.112761	110.489572
1375.837875	110.508640
1395.849898	110.527986
1416.153002	110.545406
1436.751422	110.562712
1457.649452	110.580270
1478.851452	110.598082
1500.361842	110.593823
1522.185107	110.568704
1544.325799	110.543220
1566.788535	110.569782
1589.577999	110.645670
1612.698944	110.741122
1636.156190	110.822835
1659.954630	110.898722
1684.099226	110.958500
1708.595013	111.015413
1733.447100	111.072418
1758.660669	111.129339
1784.240977	111.186161
1810.193360	111.243076
1836.523229	111.300082
1863.236074	111.356999
1890.337467	111.413822
1917.833058	111.470738
1945.728583	111.527746
1974.029857	111.584659
2002.742782	111.641484
2031.873347	111.698401
2061.427625	111.755410
2091.411780	111.812319
2121.832065	111.869145
2152.694823	111.926063
2184.006490	111.981303
2215.773596	112.026717
2248.002765	112.072256
2280.700718	112.117888
2313.874274	112.219325
2347.530351	112.333146
2381.675966	112.446987
2416.318240	112.560808
2451.464399	112.669104
2487.121769	112.750493
2523.297789	112.864312
2560.000000	112.978156
2597.236057	113.091973
2635.013726	113.205819
2673.340883	113.319634
2712.225522	113.433481
2751.675750	113.547296
2791.699796	113.630650
2832.306004	113.736987
2873.502844	113.833026
2915.298905	113.926642
2957.702904	114.040493
3000.723683	114.154304
3044.370214	114.306123
3088.651599	114.415142
3133.577071	114.491030
3179.155999	114.571662
3225.397888	114.723481
3272.312380	114.837288
3319.909260	114.951144
3368.198452	115.064950
3417.190027	115.178807
3466.894200	115.292611
3517.321337	115.406469
3568.481954	115.503170
3620.386720	115.579058
3673.046457	115.646439
3726.472148	115.688693
3780.674934	115.608596
3835.666117	115.494796
3891.457165	115.304956
3948.059713	115.064932
4005.485564	114.837270
4063.746693	114.533631
4122.855250	114.229993
4182.823560	114.002331
4243.664130	113.774669
4305.389646	113.471030
4368.012981	113.243368
4431.547192	112.939730
4496.005531	112.761120
4561.401437	112.636358
4627.748549	112.484672
4695.060701	112.332986
4763.351932	112.181300
4832.636481	111.877661
4902.928797	111.649999
4974.243539	111.346361
5046.595577	111.098831
5120.000000	110.739084
5194.472115	110.435445
5270.027452	110.055830
5346.681766	109.733391
5424.451043	109.354043
5503.351500	108.992962
5583.399591	108.747299
5664.612008	108.461662
5747.005687	108.321649
5830.597810	108.254875
5915.405808	108.300237
6001.447367	108.358204
6088.740429	108.434092
6177.303198	108.509979
6267.154142	108.585866
6358.311998	108.661754
6450.795775	108.737641
6544.624761	108.828752
6639.818520	108.942638
6736.396904	109.094458
6834.380053	109.208232
6933.788400	109.319781
7034.642675	109.393374
7136.963909	109.431076
7240.773439	109.464914
7346.092914	109.427213
7452.944296	109.384791
7561.349867	109.271021
7671.332234	109.151043
7782.914330	109.005308
7896.119426	108.847671
8010.971128	108.620009
8127.493386	108.392346
8245.710500	108.170101
8365.647121	108.056335
8487.328260	107.861311
8610.779292	107.633649
8736.025961	107.410870
8863.094385	107.254301
8992.011061	107.026638
9122.802874	106.798976
9255.497097	106.495337
9390.121402	106.267675
9526.703863	106.040012
9665.272962	105.812350
9805.857594	105.584687
9948.487077	105.281049
10093.191154	105.053386
10240.000000	104.867202
10388.944230	104.598061
10540.054903	104.294423
10693.363532	103.990784
10848.902086	103.766002
11006.703001	103.652249
11166.799182	103.462363
11329.224017	103.308063
11494.011375	103.080400
11661.195620	102.776761
11830.811616	102.544949
12002.894734	102.247407
12177.480858	102.095587
12354.606395	101.943767
12534.308283	101.790401
12716.623996	101.562739
12901.591551	101.335076
13089.249521	101.108560
13279.637040	100.994815
13472.793808	100.880897
13668.760107	100.767153
13867.576801	100.653233
14069.285350	100.539491
14273.927818	100.425225
14481.546879	100.121163
14692.185828	99.817790
14905.888592	99.362466
15122.699734	98.907144
15342.664467	98.375845
15565.828661	97.693506
15792.238852	96.859749
16021.942256	96.099609
16254.986772	95.340649
16491.420999	94.581689
16731.294241	93.974681
16974.656520	93.291697
17221.558584	92.535521
17472.051922	91.399999
17726.188769	90.185716
17984.022122	89.119799
18245.605748	88.133177
18510.994194	86.926869
18780.242805	85.265773
19053.407727	83.515803
19330.545924	81.623192
19611.715189	79.361616
19896.974155	76.493834
20186.382308	74.138131